Frame,CoM_X,CoM_Y,L_Elbow,R_Elbow,Velocity
1,399.3468,1443.2229,43.81295,84.41142,0
2,398.78116,1441.8257,36.6141,81.670235,10.049792
3,397.86536,1440.7589,41.68969,79.87858,9.373169
4,396.51312,1440.1543,63.140385,80.172455,9.875484
5,394.54047,1440.6079,79.80747,85.245514,13.494307
6,392.44095,1440.5411,93.19684,85.260895,14.003969
7,390.07977,1440.3392,79.97953,80.75821,15.798718
8,387.23032,1440.505,116.35698,100.14621,19.028484
9,383.98038,1440.6082,119.30525,106.27194,21.677244
10,380.25775,1440.9916,108.03557,82.38205,24.94895
11,376.30966,1439.9867,98.32251,40.092346,27.159945
12,371.90253,1439.2009,70.8173,36.221497,29.844427
13,366.3058,1439.9595,143.60388,52.15088,37.65289
14,361.61774,1439.5497,157.19305,15.524446,31.372929
15,354.93066,1439.5265,143.85594,24.978575,44.580776
16,348.36285,1439.2109,89.53773,32.853607,43.83596
17,342.47742,1438.9832,26.9962,45.40045,39.26566
18,334.9732,1438.9764,152.88144,43.280243,50.028217
19,326.36975,1443.4548,141.49622,40.3237,64.66153
20,316.41837,1448.1705,132.52852,47.752045,73.414246
21,306.49417,1452.305,140.70111,35.47647,71.673325
22,295.10043,1457.2147,151.47804,9.106199,82.710075
23,282.90698,1462.3855,172.34929,3.0606487,88.29644
24,271.09943,1466.4718,76.3908,7.9028153,83.29767
25,259.4048,1469.251,147.23564,22.50304,80.13551
26,247.86809,1471.5778,109.38462,2.2587025,78.45992
27,236.0787,1474.1304,173.94568,32.63609,80.4169
28,224.45117,1475.1177,2.6939971,27.673397,77.795784
29,214.47513,1474.5563,178.03,31.203379,66.61226
30,204.79723,1473.196,170.00009,87.98682,65.15367
31,193.87173,1473.9247,103.75874,38.404266,72.99846
32,182.75752,1473.9539,112.28393,56.3047,74.09507
33,172.03775,1473.8114,75.13605,36.017143,71.47154
34,161.8024,1473.3754,62.651466,56.253304,68.29763
35,152.9038,1471.7156,96.80991,49.117958,60.34731
36,143.694,1469.87,65.88105,29.344406,62.619316
37,134.67467,1468.1677,64.043335,16.958601,61.19057
38,126.26451,1467.1434,65.55327,56.48043,56.482082
39,117.81976,1466.785,119.07088,142.74327,56.349037
40,109.9525,1466.8317,145.85585,145.93642,52.44939
41,102.4578,1466.7521,74.13107,29.65377,49.967464
42,95.40753,1466.9122,96.2348,26.628803,47.013966
43,88.41817,1468.2834,103.079994,60.53189,47.48383
44,81.29649,1468.9213,96.93278,60.67758,47.66779
45,74.50984,1469.6797,106.60395,62.042786,45.525955
46,69.29079,1468.5222,55.287827,37.502327,35.639194
47,63.90624,1467.7985,101.16218,70.19087,36.219803
48,59.23655,1467.5321,92.236496,31.796886,31.181921
49,55.41589,1466.973,168.65152,136.19371,25.74239
50,51.976604,1467.7921,163.05052,48.229153,23.56967
51,49.35615,1468.518,177.10266,17.946295,18.127438
52,47.986263,1465.1958,168.1524,38.15213,23.956503
53,46.421375,1463.5455,163.72345,55.275566,15.162222
54,44.6467,1459.712,30.892109,51.047157,28.162802
55,43.377678,1457.7378,18.509645,48.219208,15.646696
56,42.5428,1458.5314,140.76692,28.251915,7.678763
57,42.065994,1455.0317,150.31009,47.723133,23.546478
58,39.831238,1454.3712,140.37529,87.65947,15.535441
59,35.66492,1462.8275,169.01779,168.85736,62.84608
60,31.502747,1480.308,159.99667,153.47931,119.794044
61,29.233574,1476.0083,66.12336,75.35125,32.411755
62,27.94885,1475.5343,174.41922,73.39236,9.129157
63,27.197796,1476.6837,175.07127,75.808975,9.152946
64,26.444796,1478.5424,175.3268,78.19792,13.369377
65,26.726862,1481.5603,174.51056,77.93379,20.207436
66,26.897831,1483.441,155.07747,73.49253,12.589301
67,27.164965,1485.6079,156.22154,74.876495,14.554676
68,27.661375,1488.8842,159.01445,90.42633,22.091087
69,27.938475,1490.53,157.71034,87.302895,11.127196
70,28.898005,1491.2737,152.23637,85.59046,8.092718
71,29.772984,1491.1378,155.34773,111.796074,5.903141
72,30.517258,1490.847,161.74338,83.089485,5.3269973
73,30.930223,1491.8197,172.63914,87.146614,7.0446167
74,31.580404,1492.8066,162.78807,74.387276,7.8790336
75,31.671894,1493.1415,159.72754,85.77978,2.3140087
76,31.79649,1494.9066,162.94917,92.21189,11.7963705
77,31.678408,1496.6906,179.65295,89.152306,11.918727
78,31.94324,1498.6436,156.78738,93.73453,13.138816
79,33.16651,1498.6277,145.08627,84.08893,8.155821
80,34.22334,1498.2432,136.3137,81.275536,7.497715
81,36.289097,1495.0781,159.61574,139.51358,25.197006
82,38.307434,1492.2083,152.14894,122.04048,23.390127
83,39.34471,1490.6859,156.68242,47.741528,12.2814865
84,39.83653,1489.4352,164.36777,60.7845,8.9594
85,40.298527,1488.2664,110.752846,72.97778,8.379081
86,41.48971,1486.3463,122.617874,72.21859,15.064171
87,42.517242,1486.6238,153.60043,65.44278,7.095556
88,43.007656,1486.3788,165.03831,68.28007,3.6548605
89,43.391644,1485.0275,153.99074,68.25203,9.365676
90,44.287067,1485.0056,159.61536,51.01091,5.971292
91,45.10487,1485.416,178.9274,41.887444,6.099818
92,45.909405,1487.1965,163.09978,77.863525,13.025192
93,46.140316,1488.3854,173.0747,66.98435,8.073656
94,46.002895,1489.584,116.93075,84.55243,8.043069
95,46.644135,1490.678,119.44443,70.27905,8.453638
96,47.402336,1491.3333,93.81686,66.346466,6.6804457
97,48.685333,1491.9761,67.31723,55.534668,9.566618
98,49.82532,1493.5271,75.079475,58.736572,12.832816
99,50.975777,1495.2247,52.925415,55.81044,13.67121
100,51.76072,1496.3389,48.690716,65.50408,9.085477
101,52.941406,1497.7688,53.960697,68.223816,12.362033
102,53.740234,1496.9131,22.207472,71.32928,7.8046002
103,55.388702,1496.4701,163.96211,53.711823,11.379574
104,57.884342,1494.8435,148.48703,83.73514,19.859673
105,59.892197,1493.124,120.72667,81.29953,17.623684
106,61.636326,1491.8799,100.29074,81.32858,14.282538
107,64.50155,1490.4199,80.45929,67.861786,21.438236
108,67.48492,1486.8274,126.84352,11.341557,31.131989
109,70.0525,1482.9865,130.53503,100.890564,30.800972
110,72.49882,1479.0865,120.53841,102.2955,30.691532
111,75.32926,1475.4517,139.11032,83.97244,30.713413
112,78.64228,1470.7947,133.72935,87.4162,38.101215
113,82.04535,1466.7288,81.77496,127.57477,35.347565
114,85.044205,1462.3175,129.98543,125.635284,35.560528
115,88.779915,1457.7245,130.40991,131.81316,39.469917
116,92.41092,1453.6641,129.17172,156.47758,36.31437
117,96.14506,1450.6162,118.14846,161.04393,32.134216
118,100.38929,1447.7756,96.7826,172.03737,34.047146
119,104.81203,1444.2053,22.371239,173.17938,37.893585
120,109.38924,1440.1655,67.64204,176.15042,40.70044
121,113.45913,1436.1537,115.24138,172.48137,38.09915
122,117.25578,1431.5085,57.37692,170.99727,39.995895
123,121.2723,1426.9666,41.487453,167.05112,40.42167
124,125.43229,1421.8816,52.620018,167.35034,43.798813
125,128.80923,1417.6396,20.409935,166.88962,36.146797
126,131.44753,1414.2555,4.5385685,166.89507,28.607628
127,132.78331,1411.7612,0.16695714,167.609,18.86272
128,134.23863,1409.1758,8.030332,165.67848,19.779577
129,135.78903,1406.8716,10.641298,164.79962,18.515099
130,138.05515,1404.1401,2.2650032,170.09807,23.660477
131,140.7063,1401.492,16.292585,167.93712,24.981838
132,143.67096,1399.0205,18.370924,163.62125,25.731474
133,146.6364,1396.7893,8.473072,164.50302,24.74052
134,150.07901,1395.1411,16.625465,161.94478,25.445778
135,153.25603,1393.8483,26.297798,162.44365,22.866917
136,156.31053,1392.1144,37.893764,154.10953,23.415628
137,159.43011,1390.5323,34.016888,162.1523,23.318922
138,161.8801,1388.9224,34.80976,162.91856,19.544107
139,163.7743,1387.5623,30.642035,162.02258,15.546059
140,164.79228,1386.616,16.730318,154.52228,9.266054
141,165.42746,1385.6481,11.937976,153.39539,7.718439
142,165.8808,1384.8053,8.215494,156.74919,6.3803096
143,166.21484,1383.6472,24.74653,166.56876,8.035551
144,166.16658,1382.7123,56.988075,170.64246,6.2415752
145,166.06383,1382.89,107.074936,171.02838,1.3688878
146,166.24492,1382.2701,122.42644,168.65575,4.3054333
147,166.66014,1381.2837,121.097664,166.93239,7.1356044
148,166.7332,1380.5558,127.13449,165.38795,4.877412
149,167.31084,1379.435,71.77078,164.18552,8.405804
150,167.64738,1379.0029,127.32971,165.57509,3.6512809
151,167.60591,1378.657,115.65859,160.32619,2.322306
152,167.4755,1378.3903,15.899553,156.42145,1.9798337
153,168.03539,1378.3267,8.277335,158.98087,3.7566054
154,168.31306,1379.0309,6.8290925,160.74837,5.046369
155,167.6977,1380.2346,40.85677,163.13219,9.012239
156,167.36998,1381.5592,46.89324,166.11624,9.096582
157,167.83995,1382.3251,95.62348,159.6066,5.9904027
158,168.76494,1383.1387,31.839565,168.97656,8.212421
159,169.74734,1383.8866,0.21899293,167.46439,8.231403
160,170.54634,1384.4891,22.807562,167.02786,6.6715565
161,171.41147,1385.033,11.285473,166.4149,6.8120613
162,172.51967,1384.9722,20.272165,167.94743,7.3990717
163,173.63643,1384.7588,3.8241103,168.24051,7.5796223
164,174.72264,1384.0837,13.85443,167.72511,8.526035
165,175.55048,1383.3871,6.523083,167.11037,7.2130914
166,176.84717,1382.6835,1.0061483,161.92368,9.835158
167,178.15276,1381.6947,60.37896,163.18701,10.91837
168,179.42029,1380.5604,90.4179,164.35747,11.3400345
169,180.05368,1380.3086,129.93512,164.67355,4.5443363
170,180.64319,1379.725,130.95761,162.65685,5.5301676
171,181.39278,1379.8615,136.7019,162.61786,5.079396
172,181.64423,1379.6731,134.56522,164.31734,2.0947022
173,182.23917,1379.8325,131.22214,164.56325,4.106147
174,182.1019,1380.0221,130.28671,173.04898,1.5602074
175,181.54308,1380.5249,137.3427,173.61119,5.0115285
176,181.49908,1381.014,125.180405,173.58595,3.274145
177,181.60318,1381.2611,133.00276,172.84293,1.7869476
178,181.11774,1381.152,137.4343,169.447,3.3171773
179,180.39854,1380.7922,112.639206,168.59128,5.361336
180,181.13126,1379.9464,82.03146,163.67172,7.4606867
181,180.72809,1379.8245,118.50558,168.46242,2.8080618
182,179.33916,1379.6388,90.90208,168.09749,9.341982
183,177.95038,1378.4521,82.96926,163.59453,12.178158
184,176.5819,1377.1716,76.72284,169.22084,12.494665
185,175.68842,1375.1305,73.05451,168.18904,14.854947
186,174.94247,1372.7848,85.24865,163.67303,16.409966
187,174.95804,1370.6747,87.0363,164.79901,14.067643
188,174.57793,1368.3395,102.69888,163.45439,15.772891
189,174.77097,1367.3102,92.60045,161.33382,6.9820538
190,176.07283,1365.88,91.57746,160.04611,12.893855
191,178.39629,1363.0128,48.466293,163.10983,24.602839
192,180.08269,1360.088,94.77933,161.91629,22.507877
193,182.3362,1357.1868,63.340706,159.84454,24.490774
194,184.90207,1354.3159,45.122658,157.6743,25.669512
195,187.46219,1352.0259,65.43245,156.14397,22.89937
196,189.26381,1350.729,59.729046,155.17885,14.799265
197,190.7196,1349.9033,67.38887,150.27794,11.157577
198,192.87796,1348.9576,56.68574,141.1857,15.709537
199,195.90182,1348.2239,59.6734,137.8939,20.744144
200,197.96976,1346.185,88.67389,131.80426,19.359875
201,200.4182,1343.3203,97.70366,129.28471,25.123697
202,202.9148,1339.9913,73.88891,131.59822,27.741007
203,205.0096,1337.1161,65.73268,130.3387,23.716333
204,207.28062,1334.7465,68.29503,129.22632,21.881306
205,209.59732,1333.0653,65.56676,116.35757,19.083035
206,211.8986,1332.2637,51.514507,113.186966,16.246164
207,213.8838,1331.6206,50.056988,109.692856,13.9117565
208,215.80814,1331.0841,43.05379,112.3428,13.318294
209,218.79652,1330.9077,6.7752366,117.46291,19.957256
210,221.19908,1331.04,9.871163,118.821976,16.04126
211,223.19847,1330.2418,10.213551,109.06914,14.352201
212,224.90656,1329.3191,25.383564,103.18805,12.9426365
213,227.23093,1327.8104,73.67343,99.502174,18.473967
214,229.93861,1326.3099,57.992504,101.826416,20.638044
215,232.18727,1323.4172,76.51498,91.61482,24.426558
216,234.83029,1319.2332,84.01845,98.42959,32.993305
217,237.59308,1315.3778,112.02139,102.26129,31.620958
218,239.68588,1311.5765,134.14107,101.647766,28.928709
219,242.53746,1309.8785,129.34615,93.386154,22.12577
220,245.34727,1308.2097,113.079285,85.81458,21.787077
221,248.74081,1306.9637,128.24722,89.197014,24.100359
222,251.32034,1306.0588,109.77099,78.16166,18.224346
223,253.02599,1305.6759,127.529396,79.98715,11.6540365
224,255.19733,1306.2231,105.89449,70.77976,14.928151
225,258.18588,1307.036,121.335754,69.28812,20.647432
226,261.7359,1307.5214,119.71941,71.961525,23.886854
227,265.73914,1308.3395,125.70282,74.13253,27.239683
228,267.70715,1307.5458,108.49692,64.242165,14.146985
229,270.59622,1304.7942,119.68481,69.60749,26.598093
230,273.19373,1302.1177,108.6082,68.23872,24.86506
231,275.41782,1299.9574,110.65625,68.75931,20.67015
232,277.81836,1297.1466,114.36405,66.79275,24.642971
233,280.59894,1295.0571,121.71348,68.1116,23.187828
234,283.5838,1290.8956,128.06528,74.40577,34.142056
235,285.62302,1288.1804,139.40306,74.39083,22.638226
236,287.07123,1286.6014,150.73555,77.36086,14.283789
237,289.1804,1284.0796,139.57991,78.18535,21.917316
238,290.00684,1286.2203,136.27737,73.33898,15.297929
239,290.48785,1288.2603,139.25482,73.25445,13.971506
240,291.0622,1289.9376,140.08896,72.756035,11.819742
241,291.46667,1290.8721,142.05824,73.03847,6.788292
242,292.15125,1291.4954,147.73656,74.78742,6.1717377
243,293.10736,1291.3154,145.98605,69.90314,6.4859443
244,294.53802,1287.4176,142.46837,77.96673,27.680687
245,296.60443,1282.8143,128.82414,69.026505,33.639027
246,298.58536,1282.075,117.985855,52.600574,14.096173
247,300.94962,1277.3107,105.08336,51.301018,35.45809
248,303.10022,1276.2351,110.77308,44.36743,16.030495
249,306.00452,1274.0859,102.77469,42.359417,24.086946
250,308.62335,1270.1353,75.84373,40.769276,31.599112
251,310.72314,1265.1552,75.300705,38.51571,36.031338
252,314.11673,1260.7806,67.6982,35.627666,36.910538
253,318.8574,1255.7831,147.4241,23.696083,45.922634
254,323.55472,1251.2218,99.65789,20.324,43.65017
255,327.76608,1246.2646,122.66115,18.141794,43.363598
256,332.7743,1241.4554,148.18123,7.82812,46.2895
257,338.71622,1237.1471,140.11354,5.0242186,48.9302
258,344.24033,1232.35,118.931274,3.4217744,48.775238
259,349.8966,1227.6078,149.61206,36.05744,49.208122
260,355.6195,1223.0427,167.42741,61.353973,48.80426
261,361.31784,1219.2825,157.07112,48.204712,45.51444
262,367.176,1216.0643,128.16283,38.559338,44.559273
263,373.6067,1213.1974,142.6064,62.979828,46.938812
264,380.53973,1210.2294,172.24553,84.01517,50.277466
265,387.7107,1207.1334,146.59464,93.141205,52.071507
266,395.24524,1204.509,169.84056,114.192154,53.190117
267,402.88104,1202.6788,175.87157,137.09613,52.34715
268,411.01685,1201.1606,178.24542,108.6089,55.17497
269,418.40674,1199.606,176.0241,82.3631,50.344387
270,424.78235,1197.7358,175.42412,72.53482,44.29494
271,431.0418,1196.321,166.64407,87.07788,42.782475
272,436.6443,1194.4207,151.50903,92.50198,39.43985
273,442.28726,1192.8087,169.59048,85.05487,39.12454
274,447.249,1192.0022,80.290276,49.684254,33.512283
275,451.46234,1191.5243,135.2128,36.747864,28.269188
276,455.24738,1190.5338,138.46411,1.3846842,26.083061
277,458.93405,1189.3616,97.446594,38.645496,25.790543
278,462.01877,1188.1355,45.854656,19.851467,22.129612
279,465.22806,1186.7234,36.432987,43.806168,23.37473
280,468.4074,1184.2303,23.369055,79.95459,26.93506
281,471.6008,1181.9458,14.546349,75.90224,26.176426
282,474.61954,1179.3322,3.8163135,70.44809,26.619688
283,477.06705,1177.1064,10.195258,68.78319,22.054905
284,478.6633,1174.4441,15.69451,75.449615,20.694931
285,479.8984,1171.6433,0.2526077,78.78439,20.407417
286,480.97388,1169.3177,11.314966,83.054184,17.081629
287,481.5263,1167.2388,15.921621,78.612274,14.340528
288,481.451,1165.6882,29.982506,73.904625,10.349347
289,481.34152,1164.0457,43.04464,70.33701,10.975458
290,481.15756,1162.0917,37.369446,67.05899,13.084713
291,480.32632,1160.8427,72.96714,67.61962,10.002652
292,479.3011,1159.6875,127.50427,79.477264,10.296883
293,478.4828,1158.7593,153.35152,105.483475,8.24954
294,477.33884,1157.9495,162.2926,104.96976,9.344433
295,475.53802,1157.4944,149.94528,90.52435,12.382977
296,473.2304,1157.7437,153.80379,96.81943,15.47366
297,471.10468,1156.9512,147.6185,107.32718,15.12441
298,468.01135,1155.7021,144.47171,105.23854,22.239769
299,464.56488,1154.6116,144.22304,103.36261,24.099493
300,461.8256,1153.8268,146.10854,103.27991,18.996742
301,459.58557,1154.0697,153.26077,102.5022,15.020947
302,456.96228,1154.9467,149.74794,105.86987,18.439903
303,454.30658,1156.2747,154.30902,98.57376,19.794907
304,450.91797,1156.7534,166.70213,91.216705,22.815172
305,447.0487,1156.3835,167.77466,82.943726,25.912807
306,442.76328,1156.2455,162.22868,76.17291,28.584589
307,438.08994,1156.1774,146.95052,58.633606,31.15892
308,432.96625,1155.6034,143.01695,53.718414,34.37177
309,428.84695,1154.3707,158.40785,53.555542,28.665262
310,424.69287,1153.3324,151.15877,42.531406,28.546104
311,421.04474,1152.1907,155.61398,52.47824,25.484272
312,417.6294,1151.7817,147.18335,12.44638,22.931652
313,415.2432,1151.8549,142.52342,34.213345,15.915418
314,413.56088,1152.4626,144.13493,61.745697,11.924842
315,412.8741,1152.81,157.20224,75.21887,5.130974
316,411.29166,1153.5634,142.99797,75.98425,11.684009
317,408.9182,1154.4275,155.96902,75.41281,16.83906
318,406.65512,1155.8743,142.02596,64.599915,17.907005
319,405.4801,1156.8624,151.31213,71.99902,10.235113
320,403.22464,1158.9602,69.468506,44.650543,20.534986
321,401.5432,1160.4414,91.04526,43.642395,14.938296
322,400.16696,1160.2397,131.48923,67.09592,9.273195
323,399.04883,1161.1108,145.34843,67.77469,9.449661
324,397.9103,1161.2146,139.46568,24.634073,7.621741
325,397.6797,1159.9849,159.61755,38.423405,8.341682
326,397.46442,1159.4685,159.18512,12.684658,3.7300274
327,397.122,1159.7571,110.014015,8.290142,2.985045
328,397.0181,1159.8842,99.31145,11.899364,1.0940826
329,397.11887,1159.7734,113.51042,12.004276,0.99825233
330,397.11337,1158.5607,76.16694,35.100826,8.085289
331,397.8855,1156.719,81.621544,84.10994,13.3137245
332,398.85083,1154.7936,87.772354,79.31817,14.35902
333,400.31778,1152.9862,101.427795,76.47067,15.518855
334,401.97086,1151.945,155.35896,98.5123,13.02487
335,403.33502,1151.2712,137.13272,109.7621,10.143439
336,405.2437,1150.1447,176.16296,120.54292,14.775812
337,407.72528,1149.8698,166.21873,128.99962,16.64502
338,410.3935,1148.5835,163.02191,130.74458,19.74739
339,413.73175,1145.6263,155.78598,142.48769,29.731298
340,415.94238,1144.1714,138.3073,153.77034,17.643244
341,418.0983,1142.3444,133.50081,154.60313,18.839918
342,420.61234,1141.3689,113.13643,153.5382,17.97749
343,423.30508,1140.6265,103.32572,160.3127,18.621298
344,426.33057,1139.4282,90.54178,159.18845,21.694088
345,429.60748,1138.1621,56.54297,154.04143,23.419989
346,433.29382,1136.764,34.564125,152.52095,26.283794
347,436.6711,1135.9218,23.264826,153.90244,23.2047
348,440.1159,1135.0264,22.641817,156.93262,23.72834
349,443.4856,1134.0947,30.101059,163.79774,23.307371
350,446.58414,1133.3523,47.266888,168.75557,21.241455
351,449.4993,1133.132,124.086494,160.15436,19.489805
352,451.9906,1133.3342,146.2945,156.55692,16.663177
353,453.8039,1134.0217,114.86862,162.48064,12.928044
354,455.85123,1134.4529,152.88892,159.40263,13.948197
355,456.19867,1135.1774,128.52985,173.30225,5.3565087
356,456.52472,1136.1461,98.3302,170.50192,6.81373
357,456.67184,1137.4232,59.321167,165.84595,8.569725
358,457.14124,1138.8237,47.97357,153.7928,9.846954
359,456.96863,1140.8057,54.46568,155.33551,13.263038
360,455.9761,1142.3994,174.18083,150.48663,12.516524
361,454.65958,1143.6975,164.7581,152.13019,12.325585
362,453.27365,1143.9973,87.13128,153.15883,9.453347
363,451.28476,1144.1489,77.81231,154.1084,13.297873
364,448.61026,1145.2004,151.58229,156.25989,19.15886
365,445.54193,1145.3412,65.97325,156.26054,20.477152
366,441.53018,1145.9126,174.07002,153.44398,27.014956
367,437.4381,1146.2845,145.05846,155.0363,27.392973
368,432.91724,1146.8955,173.12215,153.6475,30.413368
369,428.68777,1147.4844,132.04572,155.7689,28.468573
370,424.02957,1148.6989,176.82611,154.79042,32.092735
371,419.44803,1149.9457,178.04724,150.06296,31.65441
372,414.73422,1150.6813,179.40506,152.79457,31.805656
373,410.20804,1150.2957,178.1765,153.35373,30.28407
374,405.29837,1150.2124,179.95314,149.1204,32.736034
375,400.90085,1150.9965,176.38388,149.65814,29.77924
376,396.47723,1152.2388,178.15689,153.0733,30.631327
377,392.71207,1154.2761,170.71921,157.5406,28.540234
378,388.43945,1154.8756,161.1747,150.48694,28.76313
379,384.75882,1153.2805,163.75491,153.65977,26.742851
380,380.5536,1154.6909,167.12938,152.32985,29.569845
381,377.57196,1153.4636,164.0015,153.3152,21.495747
